#Zeit (s) ....
0.0000	    24.40	23.57
2.0000	    24.42	23.56
4.0000	    24.44	23.56
6.0000	    24.47	23.56
8.0000	    24.51	23.54
10.0000	    24.59	23.54
12.0000	    24.70	23.54
14.0000	    24.85	23.54
16.0000	    25.03	23.53
18.0000	    25.23	23.53
20.0000	    25.47	23.53
22.0000	    25.74	23.53
24.0000	    26.03	23.53
26.0000	    26.32	23.54
28.0000	    26.65	23.55
30.0000	    26.97	23.56
32.0000	    27.31	23.56
34.0000	    27.65	23.56
36.0000	    28.00	23.58
38.0000	    28.35	23.60
40.0000	    28.70	23.60
42.0000	    29.06	23.62
44.0000	    29.40	23.64
46.0000	    29.72	23.66
48.0000	    30.03	23.67
50.0000	    30.31	23.70
52.0000	    30.57	23.73
54.0000	    30.78	23.76
56.0000	    30.96	23.79
58.0000	    31.11	23.83
60.0000	    31.22	23.86
62.0000	    31.29	23.89
64.0000	    31.34	23.94
66.0000	    31.36	23.97
68.0000	    31.36	24.02
70.0000	    31.35	24.06
72.0000	    31.32	24.10
74.0000	    31.27	24.15
76.0000	    31.21	24.19
78.0000	    31.15	24.25
80.0000	    31.09	24.29
82.0000	    31.00	24.33
84.0000	    30.92	24.37
86.0000	    30.84	24.42
88.0000	    30.76	24.47
90.0000	    30.70	24.52
92.0000	    30.68	24.56
94.0000	    30.69	24.61
96.0000	    30.73	24.66
98.0000	    30.81	24.70
100.0000    30.93	24.74
102.0000    31.07	24.78
104.0000    31.23	24.82
106.0000    31.43	24.87
108.0000    31.65	24.90
110.0000    31.87	24.94
112.0000    32.12	24.98
114.0000    32.38	25.02
116.0000    32.63	25.06
118.0000    32.90	25.10
120.0000    33.18	25.13
122.0000    33.46	25.17
124.0000    33.74	25.21
126.0000    34.00	25.25
128.0000    34.26	25.28
130.0000    34.51	25.31
132.0000    34.74	25.35
134.0000    34.94	25.39
136.0000    35.11	25.42
138.0000    35.25	25.46
140.0000    35.35	25.51
142.0000    35.41	25.56
144.0000    35.44	25.59
146.0000    35.44	25.64
148.0000    35.42	25.69
150.0000    35.37	25.74
152.0000    35.31	25.79
154.0000    35.23	25.84
156.0000    35.14	25.89
158.0000    35.03	25.94
160.0000    34.92	25.99
162.0000    34.80	26.04
164.0000    34.67	26.09
166.0000    34.54	26.14
168.0000    34.40	26.19
170.0000    34.27	26.24
172.0000    34.16	26.29
174.0000    34.08	26.34
176.0000    34.03	26.39
178.0000    34.02	26.44
180.0000    34.05	26.48
182.0000    34.12	26.52
184.0000    34.20	26.57
186.0000    34.33	26.61
188.0000    34.48	26.65
190.0000    34.66	26.69
192.0000    34.85	26.73
194.0000    35.06	26.76
196.0000    35.27	26.81
198.0000    35.50	26.84
200.0000    35.74	26.88
202.0000    35.99	26.92
204.0000    36.24	26.95
206.0000    36.50	26.99
208.0000    36.76	27.03
210.0000    36.99	27.06
212.0000    37.23	27.09
214.0000    37.47	27.12
216.0000    37.68	27.16
218.0000    37.88	27.19
220.0000    38.04	27.23
222.0000    38.16	27.27
224.0000    38.26	27.31
226.0000    38.31	27.35
228.0000    38.33	27.39
230.0000    38.32	27.43
232.0000    38.28	27.48
234.0000    38.22	27.52
236.0000    38.14	27.56
238.0000    38.04	27.61
240.0000    37.93	27.66
242.0000    37.81	27.70
244.0000    37.67	27.75
246.0000    37.53	27.79
248.0000    37.38	27.85
250.0000    37.23	27.90
252.0000    37.08	27.95
254.0000    36.93	28.00
256.0000    36.79	28.04
258.0000    36.68	28.09
260.0000    36.60	28.14
262.0000    36.56	28.19
264.0000    36.56	28.23
266.0000    36.60	28.28
268.0000    36.67	28.32
270.0000    36.77	28.36
272.0000    36.90	28.40
274.0000    37.06	28.43
276.0000    37.23	28.47
278.0000    37.42	28.51
280.0000    37.62	28.54
282.0000    37.84	28.58
284.0000    38.08	28.61
286.0000    38.31	28.65
288.0000    38.55	28.68
290.0000    38.80	28.72
292.0000    39.03	28.74
294.0000    39.25	28.76
296.0000    39.46	28.79
298.0000    39.65	28.82
300.0000    39.83	28.84
302.0000    39.96	28.87
304.0000    40.05	28.91
306.0000    40.12	28.94
308.0000    40.14	28.97
310.0000    40.13	29.00
312.0000    40.09	29.04
314.0000    40.03	29.08
316.0000    39.94	29.13
318.0000    39.84	29.17
320.0000    39.72	29.20
322.0000    39.58	29.25
324.0000    39.44	29.29
326.0000    39.29	29.33
328.0000    39.13	29.37
330.0000    38.97	29.41
332.0000    38.80	29.46
334.0000    38.63	29.49
336.0000    38.45	29.53
338.0000    38.28	29.57
340.0000    38.13	29.60
342.0000    38.01	29.65
344.0000    37.94	29.69
346.0000    37.90	29.73
348.0000    37.90	29.77
350.0000    37.94	29.80
352.0000    38.00	29.84
354.0000    38.10	29.87
356.0000    38.23	29.90
358.0000    38.38	29.94
360.0000    38.55	29.97
362.0000    38.75	30.00
364.0000    38.95	30.02
366.0000    39.16	30.04
368.0000    39.40	30.08
370.0000    39.63	30.11
372.0000    39.88	30.13
374.0000    40.13	30.16
376.0000    40.38	30.19
378.0000    40.62	30.22
380.0000    40.86	30.23
382.0000    41.09	30.25
384.0000    41.31	30.26
386.0000    41.51	30.28
388.0000    41.67	30.30
390.0000    41.81	30.31
392.0000    41.91	30.33
394.0000    41.97	30.37
396.0000    41.99	30.39
398.0000    41.99	30.43
400.0000    41.95	30.46
402.0000    41.89	30.49
404.0000    41.80	30.53
406.0000    41.69	30.57
408.0000    41.58	30.61
410.0000    41.45	30.65
412.0000    41.30	30.70
414.0000    41.14	30.73
416.0000    40.98	30.77
418.0000    40.81	30.81
420.0000    40.64	30.84
422.0000    40.46	30.88
424.0000    40.30	30.91
426.0000    40.16	30.95
428.0000    40.05	30.99
430.0000    39.99	31.03
432.0000    39.96	31.07
434.0000    39.98	31.10
436.0000    40.03	31.13
438.0000    40.10	31.17
440.0000    40.21	31.20
442.0000    40.34	31.23
444.0000    40.49	31.26
446.0000    40.67	31.29
448.0000    40.85	31.32
450.0000    41.05	31.35
452.0000    41.27	31.38
454.0000    41.49	31.41
456.0000    41.72	31.44
458.0000    41.96	31.46
460.0000    42.17	31.49
462.0000    42.38	31.50
464.0000    42.58	31.52
466.0000    42.75	31.54
468.0000    42.90	31.56
470.0000    43.02	31.58
472.0000    43.11	31.61
474.0000    43.17	31.63
476.0000    43.18	31.66
478.0000    43.16	31.68
480.0000    43.13	31.72
482.0000    43.07	31.76
484.0000    42.99	31.79
486.0000    42.89	31.82
488.0000    42.78	31.85
490.0000    42.65	31.88
492.0000    42.51	31.91
494.0000    42.36	31.93
496.0000    42.19	31.96
498.0000    42.03	31.98
500.0000    41.86	32.02
502.0000    41.68	32.03
504.0000    41.50	32.06
506.0000    41.33	32.08
508.0000    41.19	32.11
510.0000    41.08	32.14
512.0000    41.02	32.17
514.0000    41.00	32.20
516.0000    41.01	32.23
518.0000    41.05	32.26
520.0000    41.12	32.28
522.0000    41.23	32.30
524.0000    41.37	32.33
526.0000    41.52	32.36
528.0000    41.70	32.38
530.0000    41.89	32.41
532.0000    42.10	32.43
534.0000    42.31	32.46
536.0000    42.54	32.49
538.0000    42.76	32.51
540.0000    42.99	32.53
542.0000    43.24	32.55
544.0000    43.45	32.56
546.0000    43.67	32.56
548.0000    43.88	32.57
550.0000    44.07	32.58
552.0000    44.24	32.59
554.0000    44.38	32.62
556.0000    44.48	32.64
558.0000    44.53	32.66
560.0000    44.56	32.69
562.0000    44.55	32.72
564.0000    44.51	32.75
566.0000    44.43	32.78
568.0000    44.35	32.82
570.0000    44.23	32.86
572.0000    44.11	32.89
574.0000    43.97	32.91
576.0000    43.82	32.93
578.0000    43.66	32.96
580.0000    43.48	32.99
582.0000    43.31	33.01
584.0000    43.12	33.04
586.0000    42.92	33.05
588.0000    42.73	33.08
590.0000    42.55	33.11
592.0000    42.38	33.14
594.0000    42.24	33.17
596.0000    42.15	33.19
598.0000    42.09	33.22
600.0000    42.07	33.25
602.0000    42.10	33.28
604.0000    42.15	33.31
606.0000    42.24	33.33
608.0000    42.36	33.36
610.0000    42.50	33.38
612.0000    42.66	33.40
614.0000    42.84	33.42
616.0000    43.04	33.45
618.0000    43.24	33.47
620.0000    43.46	33.48
622.0000    43.68	33.51
624.0000    43.91	33.53
626.0000    44.14	33.55
628.0000    44.34	33.55
630.0000    44.53	33.56
632.0000    44.73	33.57
634.0000    44.92	33.58
636.0000    45.08	33.60
638.0000    45.21	33.61
640.0000    45.31	33.63
642.0000    45.38	33.66
644.0000    45.39	33.69
646.0000    45.38	33.71
648.0000    45.34	33.73
650.0000    45.27	33.76
652.0000    45.18	33.79
654.0000    45.07	33.81
656.0000    44.94	33.84
658.0000    44.79	33.87
660.0000    44.65	33.89
662.0000    44.49	33.91
664.0000    44.33	33.92
666.0000    44.16	33.95
668.0000    43.98	33.96
670.0000    43.79	33.98
672.0000    43.61	34.01
674.0000    43.43	34.05
676.0000    43.28	34.08
678.0000    43.16	34.11
680.0000    43.07	34.14
682.0000    43.03	34.18
684.0000    43.02	34.20
686.0000    43.05	34.23
688.0000    43.13	34.25
690.0000    43.24	34.28
692.0000    43.38	34.31
694.0000    43.54	34.33
696.0000    43.72	34.36
698.0000    43.92	34.38
700.0000    44.13	34.41
702.0000    44.34	34.44
704.0000    44.54	34.46
706.0000    44.75	34.48
708.0000    44.97	34.51
710.0000    45.19	34.53
712.0000    45.39	34.53
714.0000    45.58	34.54
716.0000    45.75	34.54
718.0000    45.90	34.54
720.0000    46.03	34.53
722.0000    46.14	34.53
724.0000    46.22	34.53
726.0000    46.25	34.55
728.0000    46.24	34.56
730.0000    46.20	34.58
732.0000    46.14	34.58
734.0000    46.05	34.60
736.0000    45.95	34.62
738.0000    45.83	34.64
740.0000    45.69	34.66
742.0000    45.54	34.69
744.0000    45.37	34.71
746.0000    45.18	34.72
748.0000    45.01	34.75
750.0000    44.83	34.77
752.0000    44.64	34.78
754.0000    44.44	34.81
756.0000    44.25	34.84
758.0000    44.07	34.87
760.0000    43.90	34.89
762.0000    43.77	34.93
764.0000    43.68	34.95
766.0000    43.62	34.98
768.0000    43.61	35.00
770.0000    43.63	35.03
772.0000    43.69	35.05
774.0000    43.78	35.07
776.0000    43.89	35.09
778.0000    44.03	35.11
780.0000    44.18	35.13
782.0000    44.35	35.15
784.0000    44.53	35.17
786.0000    44.73	35.19
788.0000    44.94	35.20
790.0000    45.15	35.22
792.0000    45.37	35.24
794.0000    45.60	35.26
796.0000    45.81	35.26
798.0000    46.01	35.25
800.0000    46.20	35.24
802.0000    46.36	35.24
804.0000    46.50	35.24
806.0000    46.61	35.24
808.0000    46.67	35.25
810.0000    46.71	35.25
812.0000    46.70	35.26
814.0000    46.67	35.27
816.0000    46.61	35.28
818.0000    46.53	35.29
820.0000    46.41	35.30
822.0000    46.27	35.32
824.0000    46.12	35.34
826.0000    45.97	35.36
828.0000    45.80	35.39
830.0000    45.62	35.41
832.0000    45.43	35.44
834.0000    45.23	35.46
836.0000    45.03	35.47
838.0000    44.83	35.50
840.0000    44.65	35.52
842.0000    44.47	35.55
844.0000    44.32	35.57
846.0000    44.20	35.60
848.0000    44.12	35.62
850.0000    44.09	35.64
852.0000    44.09	35.66
854.0000    44.12	35.69
856.0000    44.19	35.71
858.0000    44.29	35.72
860.0000    44.41	35.74
862.0000    44.56	35.76
864.0000    44.71	35.77
866.0000    44.90	35.79
868.0000    45.08	35.81
870.0000    45.28	35.82
872.0000    45.49	35.83
874.0000    45.71	35.85
876.0000    45.93	35.86
878.0000    46.13	35.86
880.0000    46.34	35.86
882.0000    46.54	35.87
884.0000    46.73	35.87
886.0000    46.89	35.87
888.0000    47.04	35.88
890.0000    47.15	35.88
892.0000    47.22	35.89
894.0000    47.26	35.90
896.0000    47.27	35.92
898.0000    47.24	35.93
900.0000    47.18	35.94
902.0000    47.10	35.95
904.0000    46.99	35.97
906.0000    46.86	35.99
908.0000    46.73	36.01
910.0000    46.56	36.02
912.0000    46.39	36.05
914.0000    46.21	36.06
916.0000    46.02	36.08
918.0000    45.84	36.10