#U+-1[V], Ia+-0.001[mA] -> If = 2.4+-0.1A
0 0.000
2 0.002
5 0.010
7 0.015
10 0.025
12 0.023
15 0.043
17 0.051
20 0.066
22 0.076
25 0.093
27 0.106
30 0.122
32 0.135
35 0.155
37 0.168
40 0.189
42 0.204
45 0.226
47 0.243
50 0.266
52 0.282
55 0.313
57 0.326
60 0.345
65 0.392
70 0.435
75 0.481
80 0.533
85 0.574
90 0.619
95 0.658
100 0.698
105 0.740
110 0.779
115 0.818
120 0.855
125 0.888
130 0.926
135 0.961
140 0.994
145 1.024
150 1.057
155 1.085
160 1.113
165 1.138
170 1.160
175 1.186
180 1.204
185 1.225
190 1.240
195 1.259
200 1.277